Elapsed time [s]	Value [-1E+100,1E+100]
0.000	0.2763000
0.159	0.2770000
2.258	0.2776000
4.359	0.2779000
6.460	0.2785000
8.561	0.2789000
10.660	0.2797000
12.761	0.2799000
14.862	0.2804000
16.963	0.2811000
19.064	0.2817000
21.163	0.2825000
23.264	0.2829000
25.365	0.2835000
27.474	0.2839000
29.567	0.2844000
31.666	0.2847000
33.767	0.2851000
35.868	0.2858000
37.969	0.2863000
40.068	0.2868000
42.169	0.2876000
44.270	0.2880000
46.371	0.2883000
48.472	0.2888000
50.571	0.2895000
52.672	0.2901000
54.773	0.2906000
56.874	0.2908000
58.973	0.2912000
61.074	0.2919000
63.175	0.2924000
65.281	0.2929000
67.382	0.2934000
69.484	0.2942000
71.585	0.2947000
73.686	0.2952000
75.784	0.2958000
77.886	0.2961000
79.987	0.2968000
82.088	0.2971000
84.189	0.2980000
86.288	0.2985000
88.391	0.2990000
90.492	0.2997000
92.591	0.3000000
94.692	0.3005000
96.791	0.3013000
98.892	0.3016000
100.993	0.3020000
103.094	0.3028000
105.193	0.3031000
107.294	0.3039000
109.395	0.3042000
111.496	0.3049000
113.597	0.3054000
115.696	0.3061000
117.797	0.3064000
119.898	0.3072000
121.999	0.3078000
124.100	0.3082000
126.214	0.3085000
128.300	0.3092000
130.401	0.3097000
132.502	0.3102000
134.601	0.3108000
136.702	0.3112000
138.803	0.3117000
140.904	0.3122000
143.003	0.3125000
145.104	0.3133000
147.205	0.3138000
149.306	0.3144000
151.407	0.3149000
153.506	0.3154000
155.607	0.3159000
157.708	0.3164000
159.809	0.3169000
161.908	0.3171000
164.009	0.3176000
166.110	0.3183000
168.211	0.3188000
170.310	0.3193000
172.411	0.3200000
174.512	0.3202000
176.613	0.3210000
178.714	0.3215000
180.813	0.3219000
182.914	0.3222000
185.015	0.3228000
187.116	0.3230000
189.215	0.3238000
191.316	0.3242000
193.420	0.3245000
195.518	0.3252000
197.619	0.3258000
199.718	0.3262000
201.819	0.3269000
203.920	0.3274000
206.021	0.3279000
208.122	0.3281000
210.236	0.3287000
212.322	0.3296000
214.423	0.3299000
216.524	0.3305000
218.626	0.3307000
220.724	0.3317000
222.825	0.3322000
224.926	0.3327000
227.028	0.3332000
229.126	0.3334000
231.230	0.3341000
233.328	0.3343000
235.430	0.3351000
237.531	0.3353000
239.629	0.3357000
241.730	0.3365000
243.831	0.3369000
245.933	0.3376000
248.034	0.3378000
250.132	0.3386000
252.233	0.3390000
254.335	0.3393000
256.436	0.3401000
258.534	0.3406000
260.635	0.3411000
262.739	0.3416000
264.838	0.3420000
266.939	0.3422000
269.037	0.3433000
271.139	0.3435000
273.240	0.3439000
275.338	0.3447000
277.442	0.3452000
279.540	0.3457000
281.642	0.3462000
283.743	0.3468000
285.854	0.3473000
287.942	0.3476000
290.044	0.3484000
292.145	0.3489000
294.246	0.3493000
296.347	0.3497000
298.446	0.3502000
300.547	0.3504000
302.648	0.3508000
304.749	0.3516000
306.850	0.3520000
308.949	0.3524000
311.050	0.3528000
313.151	0.3531000
315.252	0.3535000
317.353	0.3543000
319.452	0.3550000
321.553	0.3553000
323.654	0.3558000
325.755	0.3560000
327.854	0.3564000
329.955	0.3571000
332.056	0.3576000
334.157	0.3580000
336.258	0.3583000
338.357	0.3591000
340.458	0.3593000
342.559	0.3598000
344.660	0.3604000
346.759	0.3610000
348.860	0.3615000
350.961	0.3620000
353.062	0.3623000
355.161	0.3632000
357.262	0.3636000
359.363	0.3639000
361.464	0.3648000
363.565	0.3653000
365.669	0.3659000
367.765	0.3662000
369.866	0.3669000
371.967	0.3674000
374.066	0.3679000
376.167	0.3681000
378.268	0.3687000
380.369	0.3694000
382.468	0.3697000
384.569	0.3703000
386.670	0.3708000
388.771	0.3715000
390.872	0.3720000
392.971	0.3724000
395.072	0.3727000
397.173	0.3731000
399.274	0.3738000
401.375	0.3741000
403.474	0.3748000
405.575	0.3754000
407.676	0.3756000
409.777	0.3767000
411.876	0.3772000
413.977	0.3778000
416.078	0.3783000
418.179	0.3787000
420.280	0.3792000
422.379	0.3796000
424.480	0.3801000
426.581	0.3804000
428.682	0.3811000
430.784	0.3813000
432.882	0.3820000
434.983	0.3825000
437.084	0.3833000
439.186	0.3836000
441.284	0.3844000
443.385	0.3846000
445.489	0.3854000
447.588	0.3858000
449.689	0.3862000
451.787	0.3866000
453.888	0.3871000
455.989	0.3876000
458.091	0.3879000
460.192	0.3882000
462.290	0.3890000
464.391	0.3893000
466.493	0.3896000
468.594	0.3903000
470.692	0.3907000
472.793	0.3911000
474.895	0.3913000
476.996	0.3918000
479.097	0.3926000
481.195	0.3930000
483.309	0.3938000
485.398	0.3942000
487.499	0.3945000
489.600	0.3952000
491.698	0.3957000
493.800	0.3962000
495.901	0.3964000
498.002	0.3971000
500.103	0.3976000
502.204	0.3981000
504.303	0.3984000
506.404	0.3990000
508.505	0.3992000
510.604	0.3999000
512.705	0.4006000
514.806	0.4010000
516.907	0.4012000
519.008	0.4017000
521.107	0.4024000
523.208	0.4029000
525.309	0.4032000
527.410	0.4039000
529.514	0.4043000
531.610	0.4047000
533.711	0.4056000
535.812	0.4061000
537.913	0.4066000
540.012	0.4072000
542.113	0.4074000
544.217	0.4079000
546.315	0.4085000
548.416	0.4089000
550.515	0.4093000
552.616	0.4096000
554.717	0.4104000
556.818	0.4109000
558.922	0.4116000
561.018	0.4122000
563.119	0.4127000
565.220	0.4132000
567.319	0.4137000
569.422	0.4139000
571.524	0.4147000
573.622	0.4149000
575.723	0.4155000
577.824	0.4161000
579.926	0.4167000
582.024	0.4172000
584.128	0.4177000
586.226	0.4184000
588.328	0.4190000
590.429	0.4192000
592.527	0.4200000
594.628	0.4203000
596.730	0.4207000
598.831	0.4215000
600.932	0.4218000
603.030	0.4222000
605.131	0.4228000
607.230	0.4233000
609.334	0.4236000
611.432	0.4246000
613.533	0.4252000
615.635	0.4257000
617.736	0.4261000
619.837	0.4264000
621.935	0.4268000
624.037	0.4276000
626.138	0.4281000
628.239	0.4285000
630.340	0.4290000
632.439	0.4294000
634.540	0.4302000
636.641	0.4304000
638.742	0.4312000
640.840	0.4317000
642.942	0.4323000
645.043	0.4328000
647.144	0.4330000
649.245	0.4335000
651.344	0.4340000
653.447	0.4344000
655.546	0.4351000
657.647	0.4356000
659.746	0.4361000
661.847	0.4368000
663.948	0.4373000
666.049	0.4375000
668.150	0.4382000
670.251	0.4386000
672.350	0.4391000
674.451	0.4397000
676.552	0.4401000
678.653	0.4407000
680.752	0.4412000
682.853	0.4417000
684.954	0.4422000
687.055	0.4427000
689.156	0.4432000
691.255	0.4438000
693.356	0.4441000
695.457	0.4446000
697.558	0.4451000
699.657	0.4458000
701.758	0.4461000
703.949	0.4467000
705.960	0.4470000
708.059	0.4474000
710.160	0.4481000
712.261	0.4485000
714.362	0.4490000
716.461	0.4497000
718.572	0.4500000
720.663	0.4507000
722.764	0.4509000
724.865	0.4513000
726.966	0.4521000
729.065	0.4523000
731.166	0.4531000
733.267	0.4536000
735.366	0.4541000
737.470	0.4546000
739.568	0.4550000
741.669	0.4557000
743.770	0.4561000
745.869	0.4566000
747.970	0.4569000
750.071	0.4574000
752.172	0.4580000
754.273	0.4586000
756.372	0.4588000
758.473	0.4593000
760.574	0.4600000
762.675	0.4606000
764.779	0.4613000
766.875	0.4618000
768.976	0.4622000
771.077	0.4627000
773.179	0.4631000
775.277	0.4634000
777.378	0.4639000
779.479	0.4646000
781.596	0.4648000
783.682	0.4656000
785.780	0.4660000
787.881	0.4666000
789.982	0.4668000
792.084	0.4673000
794.205	0.4680000
796.283	0.4684000
798.384	0.4690000
800.486	0.4695000
802.587	0.4700000
804.685	0.4705000
806.789	0.4709000
808.888	0.4712000
810.989	0.4721000
813.095	0.4724000
815.188	0.4728000
817.289	0.4735000
819.391	0.4737000
821.492	0.4741000
823.590	0.4749000
825.691	0.4752000
827.793	0.4760000
829.894	0.4764000
831.995	0.4768000
834.096	0.4773000
836.195	0.4777000
838.296	0.4782000
840.397	0.4787000
842.498	0.4795000
844.599	0.4797000
846.703	0.4803000
848.799	0.4811000
850.900	0.4815000
853.001	0.4820000
855.100	0.4824000
857.201	0.4831000
859.302	0.4833000
861.403	0.4840000
863.502	0.4844000
865.603	0.4852000
867.704	0.4854000
869.802	0.4862000
871.906	0.4866000
874.005	0.4872000
876.106	0.4875000
878.207	0.4878000
880.308	0.4887000
882.409	0.4891000
884.508	0.4896000
886.614	0.4902000
888.710	0.4903000
890.811	0.4911000
892.910	0.4914000
895.011	0.4918000
897.112	0.4927000
899.213	0.4931000
901.314	0.4936000
903.413	0.4941000
905.519	0.4946000
907.620	0.4951000
909.721	0.4955000
911.820	0.4961000
913.921	0.4966000
916.022	0.4973000
918.123	0.4978000
920.225	0.4981000
922.326	0.4986000
924.424	0.4993000
926.525	0.4997000
928.626	0.5001000
930.728	0.5007000
932.826	0.5012000
934.927	0.5017000
937.028	0.5021000
939.130	0.5028000
941.228	0.5031000
943.329	0.5039000
945.430	0.5044000
947.532	0.5051000
949.633	0.5053000
951.734	0.5061000
953.832	0.5065000
955.934	0.5070000
958.040	0.5073000
960.136	0.5077000
962.237	0.5084000
964.335	0.5086000
966.437	0.5091000
968.538	0.5100000
970.636	0.5105000
972.740	0.5108000
974.839	0.5112000
976.940	0.5120000
979.041	0.5122000
981.139	0.5125000
983.241	0.5133000
985.342	0.5138000
987.443	0.5144000
989.544	0.5151000
991.643	0.5155000
993.749	0.5158000
995.845	0.5162000
997.946	0.5171000
1000.047	0.5173000
1002.146	0.5177000
1004.247	0.5183000
1006.348	0.5189000
1008.449	0.5194000
1010.548	0.5196000
1012.649	0.5205000
1014.750	0.5210000
1016.851	0.5215000
1018.952	0.5220000
1021.053	0.5223000
1023.152	0.5228000
1025.253	0.5236000
1027.354	0.5241000
1029.455	0.5246000
1031.556	0.5250000
1033.655	0.5255000
1035.756	0.5258000
1037.857	0.5267000
1039.958	0.5269000
1042.057	0.5276000
1044.158	0.5281000
1046.259	0.5286000
1048.360	0.5289000
1050.461	0.5294000
1052.560	0.5302000
1054.661	0.5308000
1056.762	0.5313000
1058.863	0.5318000
1060.965	0.5323000
1063.063	0.5331000
1065.164	0.5336000
1067.265	0.5339000
1069.366	0.5346000
1071.473	0.5349000
1073.566	0.5354000
1075.667	0.5360000
1077.768	0.5365000
1079.870	0.5371000
1081.968	0.5376000
1084.072	0.5381000
1086.170	0.5386000
1088.272	0.5394000
1090.373	0.5396000
1092.471	0.5403000
1094.572	0.5409000
1096.674	0.5413000
1098.775	0.5418000
1100.876	0.5422000
1102.974	0.5426000
1105.075	0.5433000
1107.177	0.5436000
1109.278	0.5442000
1111.376	0.5448000
1113.477	0.5454000
1115.579	0.5461000
1117.680	0.5466000
1119.781	0.5468000
1121.879	0.5473000
1123.981	0.5480000
1126.082	0.5485000
1128.183	0.5487000
1130.284	0.5494000
1132.383	0.5499000
1134.484	0.5504000
1136.585	0.5507000
1138.686	0.5516000
1140.784	0.5522000
1142.886	0.5526000
1144.987	0.5531000
1147.088	0.5537000
1149.189	0.5542000
1151.288	0.5547000
1153.389	0.5553000
1155.490	0.5557000
1157.591	0.5561000
1159.692	0.5563000
1161.791	0.5570000
1163.892	0.5575000
1165.993	0.5580000
1168.094	0.5583000
1170.195	0.5590000
1172.294	0.5593000
1174.395	0.5598000
1176.496	0.5605000
1178.597	0.5609000
1180.696	0.5614000
1182.797	0.5619000
1184.898	0.5624000
1186.999	0.5626000
1189.098	0.5630000
1191.199	0.5636000
1193.300	0.5641000
1195.401	0.5648000
1197.502	0.5651000
1199.601	0.5658000
1201.702	0.5664000
1203.803	0.5666000
1205.904	0.5674000
1208.003	0.5679000
1210.104	0.5682000
1212.205	0.5689000
1214.306	0.5694000
1216.405	0.5699000
1218.506	0.5704000
1220.607	0.5709000
1222.708	0.5716000
1224.807	0.5719000
1226.908	0.5725000
1229.009	0.5728000
1231.110	0.5735000
1233.211	0.5740000
1235.310	0.5742000
1237.411	0.5750000
1239.512	0.5752000
1241.613	0.5757000
1243.714	0.5764000
1245.813	0.5768000
1247.914	0.5774000
1250.015	0.5780000
1252.116	0.5784000
1254.215	0.5786000
1256.316	0.5794000
1258.417	0.5799000
1260.518	0.5804000
1262.619	0.5806000
1264.718	0.5812000
1266.819	0.5819000
1268.920	0.5824000
1271.021	0.5830000
1273.123	0.5833000
1275.221	0.5841000
1277.322	0.5846000
1279.423	0.5850000
1281.525	0.5854000
1283.626	0.5857000
1285.724	0.5862000
1287.825	0.5870000
1289.926	0.5874000
1292.028	0.5879000
1294.126	0.5883000
1296.227	0.5890000
1298.328	0.5895000
1300.430	0.5897000
1302.531	0.5902000
1304.629	0.5909000
1306.730	0.5912000
1308.832	0.5917000
1310.933	0.5926000
1313.034	0.5930000
1315.132	0.5932000
1317.233	0.5940000
1319.335	0.5944000
1321.436	0.5951000
1323.537	0.5957000
1325.638	0.5962000
1327.737	0.5964000
1329.838	0.5969000
1331.939	0.5976000
1334.037	0.5981000
1336.141	0.5985000
1338.240	0.5990000
1340.341	0.5994000
1342.442	0.6001000
1344.541	0.6006000
1346.642	0.6011000
1348.743	0.6013000
1350.844	0.6018000
1352.942	0.6025000
1355.044	0.6027000
1357.145	0.6033000
1359.243	0.6039000
1361.347	0.6043000
1363.446	0.6048000
1365.547	0.6056000
1367.648	0.6061000
1369.749	0.6065000
1371.850	0.6067000
1373.949	0.6072000
1376.050	0.6080000
1378.151	0.6083000
1380.252	0.6091000
1382.353	0.6096000
1384.452	0.6098000
1386.553	0.6103000
1388.654	0.6111000
1390.755	0.6116000
1392.854	0.6124000
1394.955	0.6126000
1397.056	0.6133000
1399.157	0.6137000
1401.256	0.6141000
1403.357	0.6147000
1405.458	0.6152000
1407.559	0.6158000
1409.660	0.6163000
1411.759	0.6166000
1413.860	0.6175000
1415.961	0.6180000
1418.062	0.6184000
1420.161	0.6189000
1422.262	0.6192000
1424.363	0.6198000
1426.464	0.6203000
1428.568	0.6208000
1430.664	0.6212000
1432.765	0.6217000
1434.866	0.6219000
1436.965	0.6224000
1439.066	0.6231000
1441.167	0.6239000
1443.268	0.6242000
1445.369	0.6250000
1447.468	0.6253000
1449.569	0.6257000
1451.670	0.6266000
1453.771	0.6271000
1455.872	0.6275000
1457.971	0.6278000
1460.075	0.6284000
1462.171	0.6287000
1464.272	0.6296000
1466.373	0.6301000
1468.474	0.6306000
1470.575	0.6308000
1472.676	0.6314000
1474.777	0.6322000
1476.879	0.6327000
1478.980	0.6332000
1481.081	0.6334000
1483.177	0.6339000
1485.340	0.6341000
1487.379	0.6350000
1489.480	0.6357000
1491.581	0.6362000
1493.683	0.6364000
1495.784	0.6368000
1497.885	0.6375000
1499.986	0.6377000
1502.097	0.6383000
1504.183	0.6391000
1506.289	0.6393000
1508.390	0.6398000
1510.486	0.6405000
1512.588	0.6413000
1514.689	0.6418000
1516.790	0.6422000
1518.891	0.6426000
1520.992	0.6431000
1523.093	0.6434000
1525.194	0.6438000
1527.296	0.6446000
1529.397	0.6450000
1531.493	0.6455000
1533.599	0.6460000
1535.695	0.6468000
1537.796	0.6470000
1539.897	0.6478000
1541.998	0.6480000
1544.099	0.6489000
1546.201	0.6494000
1548.302	0.6498000
1550.398	0.6503000
1552.499	0.6509000
1554.600	0.6513000
1556.701	0.6515000
1558.802	0.6523000
1560.903	0.6529000
1563.005	0.6534000
1565.106	0.6539000
1567.207	0.6544000
1569.308	0.6550000
1571.404	0.6553000
1573.505	0.6557000
1575.606	0.6564000
1577.707	0.6569000
1579.808	0.6573000
1581.910	0.6578000
1584.011	0.6582000
1586.112	0.6589000
1588.213	0.6594000
1590.309	0.6600000
1592.410	0.6605000
1594.511	0.6610000
1596.612	0.6613000
1598.714	0.6618000
1600.815	0.6624000
1602.916	0.6631000
1605.017	0.6634000
1607.118	0.6638000
1609.219	0.6645000
1611.320	0.6651000
1613.416	0.6659000
1615.517	0.6665000
1617.619	0.6667000
1619.720	0.6672000
1621.821	0.6680000
1623.922	0.6682000
1626.023	0.6687000
1628.124	0.6692000
1630.225	0.6697000
1632.327	0.6703000
1634.423	0.6708000
1636.524	0.6715000
1638.625	0.6721000
1640.726	0.6726000
1642.827	0.6731000
1644.928	0.6733000
1647.029	0.6738000
1649.130	0.6746000
1651.226	0.6748000
1653.328	0.6753000
1655.429	0.6760000
1657.530	0.6764000
1659.631	0.6772000
1661.732	0.6776000
1663.833	0.6779000
1665.934	0.6787000
1668.036	0.6792000
1670.137	0.6796000
1672.233	0.6801000
1674.334	0.6806000
1676.435	0.6811000
1678.536	0.6814000
1680.637	0.6817000
1682.743	0.6822000
1684.839	0.6830000
1686.941	0.6836000
1689.042	0.6841000
1691.158	0.6843000
1693.239	0.6850000
1695.340	0.6855000
1697.441	0.6860000
1699.542	0.6866000
1701.643	0.6868000
1703.745	0.6876000
1705.846	0.6881000
1707.947	0.6883000
1710.048	0.6889000
1712.144	0.6899000
1714.250	0.6903000
1716.346	0.6909000
1718.447	0.6914000
1720.548	0.6918000
1722.650	0.6921000
1724.751	0.6926000
1726.852	0.6932000
1728.953	0.6936000
1731.049	0.6941000
1733.150	0.6947000
1735.251	0.6949000
1737.352	0.6957000
1739.454	0.6959000
1741.555	0.6968000
1743.656	0.6974000
1745.757	0.6979000
1747.858	0.6981000
1749.959	0.6986000
1752.060	0.6992000
1754.161	0.6995000
1756.263	0.7000000
1758.364	0.7003000
1760.460	0.7010000
1762.561	0.7014000
1764.662	0.7019000
1766.763	0.7026000
1768.864	0.7029000
1770.965	0.7034000
1773.067	0.7042000
1775.168	0.7044000
1777.269	0.7053000
1779.365	0.7057000
1781.466	0.7063000
1783.567	0.7067000
1785.668	0.7071000
1787.769	0.7076000
1789.870	0.7083000
1791.972	0.7089000
1794.073	0.7093000
1796.174	0.7098000
1798.275	0.7104000
1800.371	0.7109000
1802.477	0.7112000
1804.573	0.7116000
1806.674	0.7124000
1808.776	0.7128000
1810.877	0.7134000
1812.978	0.7139000
1815.079	0.7146000
1817.180	0.7150000
1819.276	0.7153000
1821.377	0.7162000
1823.478	0.7168000
1825.579	0.7173000
1827.681	0.7176000
1829.782	0.7181000
1831.883	0.7188000
1833.984	0.7193000
1836.085	0.7198000
1838.181	0.7200000
1840.282	0.7210000
1842.383	0.7215000
1844.485	0.7217000
1846.586	0.7226000
1848.687	0.7229000
1850.788	0.7232000
1852.889	0.7239000
1854.990	0.7244000
1857.091	0.7250000
1859.192	0.7252000
1861.288	0.7259000
1863.390	0.7267000
1865.501	0.7272000
1867.602	0.7276000
1869.703	0.7282000
1871.804	0.7287000
1873.906	0.7293000
1876.002	0.7296000
1878.103	0.7299000
1880.204	0.7304000
1882.305	0.7312000
1884.406	0.7314000
1886.507	0.7321000
1888.608	0.7325000
1890.704	0.7333000
1892.806	0.7338000
1894.907	0.7340000
1897.008	0.7347000
1899.109	0.7349000
1901.210	0.7353000
1903.311	0.7360000
1905.412	0.7366000
1907.513	0.7371000
1909.609	0.7374000
1911.711	0.7384000
1913.812	0.7387000
1915.913	0.7392000
1918.014	0.7400000
1920.115	0.7404000
1922.216	0.7409000
1924.317	0.7411000
1926.419	0.7415000
1928.515	0.7422000
1930.616	0.7427000
1932.717	0.7430000
1934.818	0.7437000
1936.919	0.7442000
1939.020	0.7447000
1941.121	0.7455000
1943.222	0.7461000
1945.318	0.7465000
1947.420	0.7469000
1949.521	0.7472000
1951.622	0.7479000
1953.723	0.7483000
1955.824	0.7486000
1957.925	0.7493000
1960.026	0.7498000
1962.128	0.7504000
1964.229	0.7508000
1966.325	0.7512000
1968.426	0.7515000
1970.527	0.7519000
1972.628	0.7527000
1974.729	0.7532000
1976.830	0.7537000
1978.931	0.7539000
1981.033	0.7545000
1983.134	0.7552000
1985.230	0.7556000
1987.331	0.7562000
1989.432	0.7566000
1991.533	0.7570000
1993.634	0.7577000
1995.735	0.7580000
1997.837	0.7584000
1999.938	0.7592000
2002.039	0.7595000
2004.135	0.7600000
2006.236	0.7602000
2008.337	0.7608000
2010.438	0.7616000
2012.539	0.7621000
2014.640	0.7623000
2016.742	0.7629000
2018.843	0.7635000
2020.944	0.7637000
2023.045	0.7641000
2025.141	0.7648000
2027.242	0.7650000
2029.343	0.7656000
2031.444	0.7661000
2033.546	0.7669000
2035.647	0.7674000
2037.748	0.7677000
2039.849	0.7683000
2041.950	0.7687000
2044.046	0.7690000
2046.147	0.7697000
2048.248	0.7702000
2050.349	0.7707000
2052.461	0.7709000
2054.562	0.7718000
2056.653	0.7722000
2058.754	0.7729000
2060.855	0.7735000
2062.956	0.7740000
2065.052	0.7743000
2067.153	0.7748000
2069.255	0.7755000
2071.356	0.7760000
2073.457	0.7762000
2075.558	0.7768000
2077.664	0.7775000
2079.760	0.7780000
2081.861	0.7784000
2083.957	0.7791000
2086.058	0.7797000
2088.160	0.7802000
2090.261	0.7806000
2092.362	0.7812000
2094.463	0.7817000
2096.564	0.7819000
2098.665	0.7823000
2100.766	0.7831000
2102.862	0.7834000
2104.964	0.7841000
2107.065	0.7847000
2109.166	0.7852000
2111.267	0.7857000
2113.368	0.7860000
2115.469	0.7866000
2117.570	0.7873000
2119.671	0.7878000
2121.767	0.7881000
2123.869	0.7887000
2125.970	0.7893000
2128.071	0.7895000
2130.172	0.7902000
2132.278	0.7909000
2134.374	0.7911000
2136.475	0.7918000
2138.577	0.7923000
2140.678	0.7928000
2142.779	0.7932000
2144.875	0.7938000
2146.976	0.7941000
2149.077	0.7948000
2151.178	0.7953000
2153.279	0.7958000
2155.380	0.7963000
2157.482	0.7968000
2159.583	0.7975000
2161.684	0.7981000
2163.785	0.7984000
2165.881	0.7990000
2167.987	0.7995000
2170.088	0.7997000
2172.184	0.8002000
2174.286	0.8010000
2176.387	0.8016000
2178.488	0.8018000
2180.589	0.8024000
2182.690	0.8031000
2184.786	0.8038000
2186.887	0.8043000
2188.988	0.8047000
2191.089	0.8052000
2193.191	0.8056000
2195.292	0.8062000
2197.393	0.8066000
2199.494	0.8069000
2201.595	0.8076000
2203.691	0.8081000
2205.792	0.8084000
2207.893	0.8093000
2209.995	0.8098000
2212.096	0.8103000
2214.197	0.8107000
2216.298	0.8112000
2218.399	0.8117000
2220.500	0.8120000
2222.601	0.8127000
2224.697	0.8131000
2226.798	0.8134000
2228.900	0.8141000
2231.001	0.8145000
2233.102	0.8150000
2235.203	0.8155000
2237.304	0.8162000
2239.416	0.8167000
2241.506	0.8172000
2243.608	0.8174000
2245.704	0.8182000
2247.805	0.8187000
2249.906	0.8192000
2252.007	0.8194000
2254.108	0.8200000
2256.209	0.8207000
2258.310	0.8213000
2260.411	0.8219000
