Elapsed time [s]	Value [0,2500]
0.000	0
114.653	46.05710
116.731	49.54040
118.814	53.02380
120.874	56.50710
122.895	59.80710
124.935	63.29050
126.974	66.59050
129.057	70.07390
131.135	73.55720
133.197	77.04060
135.257	80.52390
137.317	83.82390
139.377	87.30730
141.437	90.79060
143.479	94.09070
145.518	97.57400
147.560	100.8740
149.620	104.3570
151.680	107.8410
153.722	111.1410
155.761	114.6240
157.842	118.1070
159.902	121.5910
161.941	124.8910
164.063	128.3740
166.123	131.8580
168.183	135.3410
170.266	138.8240
172.287	142.1240
174.347	145.6080
176.407	149.0910
178.447	152.3910
180.486	155.8740
182.528	159.1740
184.588	162.6580
186.648	166.1410
188.687	169.4410
190.747	172.9240
192.789	176.4080
194.828	179.7080
196.849	183.1910
198.917	186.4910
200.977	189.9750
203.019	193.4580
205.097	196.7580
207.157	200.2410
209.237	203.7250
211.279	207.2080
213.298	210.5080
215.379	213.9910
217.418	217.2910
219.480	220.7750
221.540	224.2580
223.600	227.7410
225.681	231.2250
227.702	234.5250
229.808	238.0080
231.848	241.4910
233.949	244.9750
235.991	248.2750
238.051	250.0000
359.834	260.7950
361.894	264.2780
363.934	267.5780
365.973	271.0610
368.015	274.5440
370.054	277.8440
372.106	281.3270
374.207	284.8100
376.239	288.1090
378.340	291.7760
380.400	295.0760
382.460	298.5590
384.582	302.0420
386.642	305.5250
388.684	309.0080
390.746	312.3070
392.824	315.7910
394.884	319.2740
396.926	322.7570
398.965	326.0560
401.087	329.5390
403.126	333.0230
405.168	336.3220
407.228	339.8050
409.309	343.2880
411.387	346.7710
413.485	350.2550
415.527	353.7380
417.608	357.2210
419.688	360.5200
421.728	364.0030
423.788	367.4870
425.909	370.9700
427.969	374.4530
430.011	377.7520
432.071	381.2350
434.131	384.7190
436.150	388.0180
438.251	391.5010
440.311	394.9840
442.332	398.2840
444.392	401.7670
446.452	405.2500
448.473	408.5500
450.513	412.0330
452.552	415.3330
454.612	418.8160
456.633	422.1160
458.696	425.5990
460.776	429.0820
462.818	432.3820
464.899	435.8650
467.018	439.5310
469.060	442.8310
471.176	446.4970
473.236	449.7970
475.278	453.2800
477.318	456.5800
479.419	460.2460
481.479	463.5460
483.559	467.0290
485.619	470.5120
487.679	473.9950
489.721	477.2950
491.781	480.7780
493.820	484.0770
495.883	487.5610
497.963	491.0440
500.000	494.5270
502.042	497.8260
504.104	501.3090
506.164	504.7930
508.206	508.0920
510.284	511.5750
512.385	515.0590
514.466	518.5430
516.546	522.0260
518.588	525.5100
520.628	528.8100
522.690	532.2940
524.750	535.7770
526.810	539.0780
528.870	542.5610
530.966	546.0450
533.026	549.5290
535.127	553.0120
537.169	556.4960
539.229	559.7960
541.289	563.2800
543.328	566.5800
545.370	570.0640
547.409	573.5470
549.490	577.0310
551.529	580.3310
553.571	583.8150
555.631	587.1150
557.712	590.5990
559.774	594.0830
561.793	597.3830
563.853	600.8670
565.895	604.3500
567.955	607.6500
569.997	611.1340
572.075	614.6180
574.137	618.1010
576.215	621.4020
578.278	624.8850
580.338	628.3690
582.397	630.0000
4387.492	627.6220
4389.552	624.3220
4391.596	620.8380
4393.635	617.5380
4395.695	614.0540
4397.776	610.5700
4399.815	607.0870
4401.885	603.7870
4403.925	600.3030
4405.959	597.0030
4408.019	593.5190
4410.099	590.0350
4412.159	586.5520
4414.199	583.2510
4416.238	579.7680
4418.283	576.2840
4420.368	572.9840
4422.408	569.5000
4424.473	566.0170
4426.517	562.7160
4428.572	559.2330
4430.658	555.7490
4432.712	552.2650
4434.788	548.7820
4436.987	545.1150
4439.088	541.6310
4441.168	538.1470
4443.228	534.8470
4445.268	531.3630
4447.286	528.0630
4449.326	524.5800
4451.375	521.2790
4453.415	517.7960
4455.449	514.4950
4457.509	511.0120
4459.548	507.5290
4461.608	504.2290
4463.689	500.7460
4465.728	497.2630
4467.752	493.9630
4469.832	490.4800
4471.872	486.9970
4473.911	483.6970
4475.992	480.2140
4478.031	476.7310
4480.096	473.4310
4482.177	469.9480
4484.216	466.4650
4486.240	463.1660
4488.300	459.6820
4490.375	456.1990
4492.518	452.7160
4494.598	449.2330
4496.637	445.7500
4498.718	442.2670
4500.778	438.9670
4502.858	435.4840
4504.918	432.0010
4506.942	428.5180
4508.982	425.2190
4511.062	421.7350
4513.143	418.2520
4515.161	414.9530
4517.216	411.4700
4519.225	408.1700
4521.285	404.6870
4523.324	401.2040
4525.384	397.9040
4527.444	394.4210
4529.545	390.9380
4531.605	387.4550
4533.644	384.1550
4535.683	380.6720
4537.743	377.1890
4539.788	373.8890
4541.848	370.4060
4543.918	366.9230
4545.978	363.6230
4548.079	360.1400
4550.180	356.4740
4552.199	353.1740
4554.316	349.6910
4556.360	346.2080
4558.477	342.7250
4560.521	339.2420
4562.560	335.9420
4564.600	332.4590
4566.680	328.9760
4568.699	325.6760
4570.738	322.1930
4572.804	318.8930
4574.863	315.4100
4576.944	311.9270
4578.983	308.6280
4581.064	305.1450
4583.144	301.6610
4585.204	298.1780
4587.264	294.6950
4589.304	291.3960
4591.348	287.9130
4593.367	284.6130
4595.468	281.1300
4597.528	277.6470
4599.608	274.1640
4601.648	270.6810
4603.708	267.3810
4605.768	263.8980
4607.848	260.4150
4609.893	256.9320
4611.989	253.4480
4614.049	250.1480
4616.165	246.6650
4618.194	243.1820
4620.270	239.6980
4622.294	236.3980
4624.384	232.9150
4626.506	229.4320
4628.545	225.9480
4630.626	222.4650
4632.686	218.9810
4634.730	215.6810
4636.790	212.1980
4638.866	208.7150
4640.910	205.4150
4642.970	201.9310
4645.071	198.4480
4647.111	194.9650
4649.134	191.6650
4651.194	188.1810
4653.275	184.6980
4655.335	181.2150
4657.415	177.7310
4659.470	174.4310
4661.499	170.9480
4663.539	167.6480
4665.599	164.1640
4667.638	160.6810
4669.718	157.3810
4671.778	153.8980
4673.838	150.4140
4675.945	146.9310
4678.025	143.4480
4680.070	140.1480
4682.130	136.6640
4684.169	133.1810
4686.208	129.8810
4688.248	126.3980
4690.271	123.0980
4692.352	119.6140
4694.371	116.1310
4696.431	112.8310
4698.609	109.1640
4700.674	105.6810
4702.734	102.1970
4704.773	98.89740
4706.833	95.41410
4708.852	92.11410
4710.897	88.63070
4712.956	85.33070
4714.996	81.84740
4717.097	78.36400
4719.157	74.88060
4721.196	71.58060
4723.236	68.09730
4725.275	64.61390
4727.335	61.31390
4729.400	57.83060
4731.465	54.34720
4733.566	50.86380
4735.611	47.56380
4737.691	44.08050
4739.761	40.59710
4741.821	37.11380
4743.902	33.63040
4745.962	30.14710
4748.027	26.84710
4750.082	23.36380
4752.142	19.88050
4754.181	16.58050
4756.225	13.09720
4758.285	9.613820
4760.330	6.313820
4762.405	2.830480
4764.486	0
