60.00000 362.000
60.00600 354.000
60.01200 373.000
60.01800 353.000
60.02400 361.000
60.03000 372.000
60.03600 344.000
60.04200 340.000
60.04800 368.000
60.05400 334.000
60.06000 387.000
60.06600 388.000
60.07200 403.000
60.07800 334.000
60.08400 358.000
60.09000 356.000
60.09600 343.000
60.10200 381.000
60.10800 340.000
60.11400 382.000
60.12000 394.000
60.12600 389.000
60.13200 372.000
60.13800 376.000
60.14400 357.000
60.15000 345.000
60.15600 348.000
60.16200 374.000
60.16800 360.000
60.17400 381.000
60.18000 355.000
60.18600 387.000
60.19200 380.000
60.19800 364.000
60.20400 380.000
60.21000 347.000
60.21600 357.000
60.22200 367.000
60.22800 364.000
60.23400 362.000
60.24000 370.000
60.24600 348.000
60.25200 350.000
60.25800 420.000
60.26400 361.000
60.27000 329.000
60.27600 366.000
60.28200 371.000
60.28800 406.000
60.29400 350.000
60.30000 383.000
60.30600 353.000
60.31200 363.000
60.31800 386.000
60.32400 366.000
60.33000 393.000
60.33600 342.000
60.34200 334.000
60.34800 343.000
60.35400 382.000
60.36000 382.000
60.36600 411.000
60.37200 371.000
60.37800 362.000
60.38400 340.000
60.39000 353.000
60.39600 374.000
60.40200 371.000
60.40800 349.000
60.41400 359.000
60.42000 368.000
60.42600 354.000
60.43200 383.000
60.43800 360.000
60.44400 353.000
60.45000 351.000
60.45600 346.000
60.46200 359.000
60.46800 400.000
60.47400 376.000
60.48000 368.000
60.48600 357.000
60.49200 399.000
60.49800 390.000
60.50400 388.000
60.51000 340.000
60.51600 341.000
60.52200 338.000
60.52800 385.000
60.53400 335.000
60.54000 345.000
60.54600 398.000
60.55200 403.000
60.55800 377.000
60.56400 378.000
60.57000 390.000
60.57600 359.000
60.58200 398.000
60.58800 356.000
60.59400 355.000
60.60000 388.000
60.60600 377.000
60.61200 365.000
60.61800 345.000
60.62400 359.000
60.63000 388.000
60.63600 357.000
60.64200 325.000
60.64800 351.000
60.65400 361.000
60.66000 375.000
60.66600 379.000
60.67200 391.000
60.67800 367.000
60.68400 376.000
60.69000 375.000
60.69600 370.000
60.70200 355.000
60.70800 350.000
60.71400 377.000
60.72000 373.000
60.72600 337.000
60.73200 379.000
60.73800 350.000
60.74400 361.000
60.75000 340.000
60.75600 356.000
60.76200 354.000
60.76800 363.000
60.77400 349.000
60.78000 351.000
60.78600 369.000
60.79200 361.000
60.79800 337.000
60.80400 378.000
60.81000 366.000
60.81600 352.000
60.82200 343.000
60.82800 352.000
60.83400 385.000
60.84000 337.000
60.84600 367.000
60.85200 384.000
60.85800 335.000
60.86400 349.000
60.87000 349.000
60.87600 379.000
60.88200 387.000
60.88800 369.000
60.89400 339.000
60.90000 389.000
60.90600 373.000
60.91200 365.000
60.91800 352.000
60.92400 362.000
60.93000 361.000
60.93600 358.000
60.94200 343.000
60.94800 362.000
60.95400 366.000
60.96000 369.000
60.96600 375.000
60.97200 397.000
60.97800 378.000
60.98400 412.000
60.99000 389.000
60.99600 372.000
61.00200 386.000
61.00800 401.000
61.01400 360.000
61.02000 333.000
61.02600 372.000
61.03200 366.000
61.03800 364.000
61.04400 347.000
61.05000 401.000
61.05600 368.000
61.06200 379.000
61.06800 387.000
61.07400 356.000
61.08000 380.000
61.08600 378.000
61.09200 386.000
61.09800 344.000
61.10400 401.000
61.11000 404.000
61.11600 377.000
61.12200 376.000
61.12800 384.000
61.13400 365.000
61.14000 343.000
61.14600 385.000
61.15200 364.000
61.15800 358.000
61.16400 357.000
61.17000 372.000
61.17600 397.000
61.18200 366.000
61.18800 373.000
61.19400 372.000
61.20000 399.000
61.20600 383.000
61.21200 358.000
61.21800 383.000
61.22400 363.000
61.23000 397.000
61.23600 385.000
61.24200 403.000
61.24800 372.000
61.25400 379.000
61.26000 357.000
61.26600 400.000
61.27200 389.000
61.27800 384.000
61.28400 382.000
61.29000 395.000
61.29600 386.000
61.30200 406.000
61.30800 371.000
61.31400 382.000
61.32000 420.000
61.32600 408.000
61.33200 362.000
61.33800 395.000
61.34400 385.000
61.35000 388.000
61.35600 368.000
61.36200 356.000
61.36800 402.000
61.37400 387.000
61.38000 388.000
61.38600 395.000
61.39200 397.000
61.39800 407.000
61.40400 410.000
61.41000 403.000
61.41600 401.000
61.42200 404.000
61.42800 361.000
61.43400 378.000
61.44000 377.000
61.44600 369.000
61.45200 396.000
61.45800 388.000
61.46400 389.000
61.47000 348.000
61.47600 402.000
61.48200 383.000
61.48800 376.000
61.49400 388.000
61.50000 391.000
61.50600 393.000
61.51200 374.000
61.51800 371.000
61.52400 362.000
61.53000 434.000
61.53600 405.000
61.54200 400.000
61.54800 395.000
61.55400 406.000
61.56000 362.000
61.56600 385.000
61.57200 390.000
61.57800 440.000
61.58400 365.000
61.59000 466.000
61.59600 414.000
61.60200 409.000
61.60800 413.000
61.61400 406.000
61.62000 416.000
61.62600 409.000
61.63200 417.000
61.63800 406.000
61.64400 421.000
61.65000 418.000
61.65600 395.000
61.66200 417.000
61.66800 393.000
61.67400 445.000
61.68000 429.000
61.68600 369.000
61.69200 426.000
61.69800 416.000
61.70400 477.000
61.71000 384.000
61.71600 401.000
61.72200 439.000
61.72800 426.000
61.73400 420.000
61.74000 414.000
61.74600 377.000
61.75200 428.000
61.75800 424.000
61.76400 428.000
61.77000 389.000
61.77600 401.000
61.78200 436.000
61.78800 493.000
61.79400 453.000
61.80000 428.000
61.80600 435.000
61.81200 416.000
61.81800 405.000
61.82400 435.000
61.83000 433.000
61.83600 455.000
61.84200 434.000
61.84800 460.000
61.85400 456.000
61.86000 478.000
61.86600 413.000
61.87200 463.000
61.87800 436.000
61.88400 454.000
61.89000 453.000
61.89600 449.000
61.90200 494.000
61.90800 472.000
61.91400 471.000
61.92000 454.000
61.92600 509.000
61.93200 464.000
61.93800 496.000
61.94400 485.000
61.95000 472.000
61.95600 482.000
61.96200 476.000
61.96800 496.000
61.97400 505.000
61.98000 493.000
61.98600 500.000
61.99200 514.000
61.99800 551.000
62.00400 499.000
62.01000 498.000
62.01600 516.000
62.02200 498.000
62.02800 549.000
62.03400 565.000
62.04000 573.000
62.04600 546.000
62.05200 510.000
62.05800 550.000
62.06400 569.000
62.07000 552.000
62.07600 573.000
62.08200 567.000
62.08800 611.000
62.09400 611.000
62.10000 572.000
62.10600 618.000
62.11200 601.000
62.11800 586.000
62.12400 607.000
62.13000 620.000
62.13600 610.000
62.14200 633.000
62.14800 651.000
62.15400 676.000
62.16000 633.000
62.16600 670.000
62.17200 658.000
62.17800 646.000
62.18400 727.000
62.19000 697.000
62.19600 747.000
62.20200 793.000
62.20800 751.000
62.21400 775.000
62.22000 751.000
62.22600 849.000
62.23200 787.000
62.23800 774.000
62.24400 788.000
62.25000 864.000
62.25600 904.000
62.26200 925.000
62.26800 906.000
62.27400 859.000
62.28000 944.000
62.28600 971.000
62.29200 972.000
62.29800 1003.000
62.30400 1060.000
62.31000 1026.000
62.31600 1094.000
62.32200 1097.000
62.32800 1106.000
62.33400 1204.000
62.34000 1194.000
62.34600 1218.000
62.35200 1250.000
62.35800 1322.000
62.36400 1319.000
62.37000 1387.000
62.37600 1414.000
62.38200 1508.000
62.38800 1506.000
62.39400 1519.000
62.40000 1624.000
62.40600 1686.000
62.41200 1697.000
62.41800 1799.000
62.42400 1807.000
62.43000 1768.000
62.43600 1950.000
62.44200 1927.000
62.44800 1998.000
62.45400 2018.000
62.46000 2132.000
62.46600 2276.000
62.47200 2089.000
62.47800 2226.000
62.48400 2278.000
62.49000 2362.000
62.49600 2246.000
62.50200 2318.000
62.50800 2273.000
62.51400 2309.000
62.52000 2332.000
62.52600 2300.000
62.53200 2356.000
62.53800 2295.000
62.54400 2339.000
62.55000 2362.000
62.55600 2288.000
62.56200 2230.000
62.56800 2241.000
62.57400 2251.000
62.58000 2168.000
62.58600 2102.000
62.59200 2004.000
62.59800 2064.000
62.60400 1880.000
62.61000 1919.000
62.61600 1915.000
62.62200 1965.000
62.62800 1952.000
62.63400 1853.000
62.64000 1955.000
62.64600 1895.000
62.65200 1773.000
62.65800 1907.000
62.66400 1735.000
62.67000 1688.000
62.67600 1795.000
62.68200 1700.000
62.68800 1703.000
62.69400 1697.000
62.70000 1687.000
62.70600 1528.000
62.71200 1652.000
62.71800 1482.000
62.72400 1515.000
62.73000 1474.000
62.73600 1356.000
62.74200 1416.000
62.74800 1347.000
62.75400 1282.000
62.76000 1248.000
62.76600 1214.000
62.77200 1148.000
62.77800 1161.000
62.78400 1138.000
62.79000 1155.000
62.79600 1069.000
62.80200 997.000
62.80800 1009.000
62.81400 936.000
62.82000 956.000
62.82600 914.000
62.83200 909.000
62.83800 846.000
62.84400 912.000
62.85000 821.000
62.85600 859.000
62.86200 791.000
62.86800 813.000
62.87400 791.000
62.88000 671.000
62.88600 735.000
62.89200 746.000
62.89800 705.000
62.90400 707.000
62.91000 693.000
62.91600 666.000
62.92200 633.000
62.92800 665.000
62.93400 621.000
62.94000 595.000
62.94600 633.000
62.95200 578.000
62.95800 599.000
62.96400 642.000
62.97000 597.000
62.97600 585.000
62.98200 569.000
62.98800 570.000
62.99400 566.000
63.00000 563.000
63.00600 549.000
63.01200 546.000
63.01800 515.000
63.02400 494.000
63.03000 558.000
63.03600 535.000
63.04200 541.000
63.04800 515.000
63.05400 510.000
63.06000 522.000
63.06600 490.000
63.07200 534.000
63.07800 501.000
63.08400 494.000
63.09000 512.000
63.09600 500.000
63.10200 471.000
63.10800 499.000
63.11400 485.000
63.12000 501.000
63.12600 484.000
63.13200 468.000
63.13800 455.000
63.14400 503.000
63.15000 500.000
63.15600 471.000
63.16200 498.000
63.16800 502.000
63.17400 498.000
63.18000 532.000
63.18600 493.000
63.19200 506.000
63.19800 495.000
63.20400 486.000
63.21000 458.000
63.21600 491.000
63.22200 485.000
63.22800 443.000
63.23400 448.000
63.24000 462.000
63.24600 505.000
63.25200 436.000
63.25800 490.000
63.26400 432.000
63.27000 447.000
63.27600 451.000
63.28200 447.000
63.28800 433.000
63.29400 435.000
63.30000 471.000
63.30600 467.000
63.31200 415.000
63.31800 445.000
63.32400 444.000
63.33000 458.000
63.33600 436.000
63.34200 461.000
63.34800 487.000
63.35400 392.000
63.36000 446.000
63.36600 468.000
63.37200 426.000
63.37800 415.000
63.38400 409.000
63.39000 413.000
63.39600 442.000
63.40200 429.000
63.40800 407.000
63.41400 420.000
63.42000 398.000
63.42600 384.000
63.43200 396.000
63.43800 412.000
63.44400 395.000
63.45000 391.000
63.45600 408.000
63.46200 373.000
63.46800 363.000
63.47400 382.000
63.48000 404.000
63.48600 422.000
63.49200 407.000
63.49800 378.000
63.50400 379.000
63.51000 370.000
63.51600 370.000
63.52200 403.000
63.52800 353.000
63.53400 364.000
63.54000 381.000
63.54600 381.000
63.55200 384.000
63.55800 378.000
63.56400 368.000
63.57000 365.000
63.57600 405.000
63.58200 373.000
63.58800 405.000
63.59400 398.000
63.60000 378.000
63.60600 354.000
63.61200 381.000
63.61800 399.000
63.62400 377.000
63.63000 387.000
63.63600 363.000
63.64200 392.000
63.64800 384.000
63.65400 360.000
63.66000 365.000
63.66600 351.000
63.67200 370.000
63.67800 357.000
63.68400 361.000
63.69000 363.000
63.69600 362.000
63.70200 382.000
63.70800 337.000
63.71400 372.000
63.72000 340.000
63.72600 365.000
63.73200 384.000
63.73800 383.000
63.74400 349.000
63.75000 387.000
63.75600 330.000
63.76200 382.000
63.76800 360.000
63.77400 337.000
63.78000 376.000
63.78600 384.000
63.79200 385.000
63.79800 366.000
63.80400 359.000
63.81000 404.000
63.81600 396.000
63.82200 351.000
63.82800 374.000
63.83400 393.000
63.84000 362.000
63.84600 357.000
63.85200 395.000
63.85800 374.000
63.86400 367.000
63.87000 367.000
63.87600 371.000
63.88200 365.000
63.88800 376.000
63.89400 351.000
63.90000 358.000
63.90600 380.000
63.91200 341.000
63.91800 379.000
63.92400 373.000
63.93000 333.000
63.93600 365.000
63.94200 353.000
63.94800 344.000
63.95400 348.000
63.96000 326.000
63.96600 359.000
63.97200 354.000
63.97800 333.000
63.98400 343.000
63.99000 368.000
63.99600 358.000
64.00200 373.000
64.00800 358.000
64.01400 350.000
64.02000 387.000
64.02600 340.000
64.03200 366.000
64.03800 328.000
64.04400 347.000
64.05000 347.000
64.05600 371.000
64.06200 316.000
64.06800 337.000
64.07400 328.000
64.08000 327.000
64.08600 338.000
64.09200 331.000
64.09800 352.000
64.10400 356.000
64.11000 364.000
64.11600 374.000
64.12200 366.000
64.12800 360.000
64.13400 325.000
64.14000 351.000
64.14600 353.000
64.15200 343.000
64.15800 347.000
64.16400 373.000
64.17000 351.000
64.17600 353.000
64.18200 347.000
64.18800 333.000
64.19400 356.000
64.20000 331.000
64.20600 355.000
64.21200 348.000
64.21800 347.000
64.22400 330.000
64.23000 353.000
64.23600 365.000
64.24200 343.000
64.24800 333.000
64.25400 296.000
64.26000 352.000
64.26600 337.000
64.27200 334.000
64.27800 350.000
64.28400 343.000
64.29000 356.000
64.29600 346.000
64.30200 349.000
64.30800 330.000
64.31400 341.000
64.32000 341.000
64.32600 340.000
64.33200 351.000
64.33800 359.000
64.34400 335.000
64.35000 333.000
64.35600 389.000
64.36200 355.000
64.36800 354.000
64.37400 320.000
64.38000 332.000
64.38600 331.000
64.39200 307.000
64.39800 322.000
64.40400 342.000
64.41000 332.000
64.41600 330.000
64.42200 375.000
64.42800 345.000
64.43400 352.000
64.44000 330.000
64.44600 323.000
64.45200 332.000
64.45800 328.000
64.46400 366.000
64.47000 360.000
64.47600 357.000
64.48200 372.000
64.48800 337.000
64.49400 346.000
64.50000 340.000
64.50600 323.000
64.51200 366.000
64.51800 330.000
64.52400 360.000
64.53000 366.000
64.53600 345.000
64.54200 353.000
64.54800 352.000
64.55400 334.000
64.56000 328.000
64.56600 347.000
64.57200 322.000
64.57800 336.000
64.58400 364.000
64.59000 382.000
64.59600 350.000
64.60200 353.000
64.60800 350.000
64.61400 345.000
64.62000 360.000
64.62600 367.000
64.63200 343.000
64.63800 331.000
64.64400 334.000
64.65000 397.000
64.65600 357.000
64.66200 341.000
64.66800 337.000
64.67400 382.000
64.68000 337.000
64.68600 348.000
64.69200 360.000
64.69800 343.000
64.70400 345.000
64.71000 363.000
64.71600 351.000
64.72200 321.000
64.72800 355.000
64.73400 336.000
64.74000 393.000
64.74600 335.000
64.75200 375.000
64.75800 351.000
64.76400 350.000
64.77000 354.000
64.77600 376.000
64.78200 342.000
64.78800 332.000
64.79400 342.000
64.80000 336.000
64.80600 324.000
64.81200 326.000
64.81800 343.000
64.82400 348.000
64.83000 342.000
64.83600 330.000
64.84200 362.000
64.84800 369.000
64.85400 316.000
64.86000 352.000
64.86600 363.000
64.87200 341.000
64.87800 360.000
64.88400 344.000
64.89000 347.000
64.89600 345.000
64.90200 361.000
64.90800 369.000
64.91400 370.000
64.92000 341.000
64.92600 329.000
64.93200 351.000
64.93800 348.000
64.94400 380.000
64.95000 365.000
64.95600 337.000
64.96200 345.000
64.96800 354.000
64.97400 375.000
64.98000 315.000
64.98600 361.000
64.99200 327.000
64.99800 376.000
65.00400 320.000
65.01000 357.000
65.01600 343.000
65.02200 394.000
65.02800 342.000
65.03400 339.000
65.04000 343.000
65.04600 385.000
65.05200 325.000
65.05800 353.000
65.06400 375.000
65.07000 332.000
65.07600 348.000
65.08200 375.000
65.08800 329.000
65.09400 372.000
65.10000 379.000
65.10600 326.000
65.11200 347.000
65.11800 378.000
65.12400 377.000
65.13000 350.000
65.13600 363.000
65.14200 339.000
65.14800 363.000
65.15400 347.000
65.16000 337.000
65.16600 370.000
65.17200 398.000
65.17800 392.000
65.18400 342.000
65.19000 396.000
65.19600 384.000
65.20200 343.000
65.20800 368.000
65.21400 380.000
65.22000 362.000
65.22600 373.000
65.23200 344.000
65.23800 407.000
65.24400 401.000
65.25000 362.000
65.25600 384.000
65.26200 381.000
65.26800 409.000
65.27400 373.000
65.28000 369.000
65.28600 379.000
65.29200 410.000
65.29800 432.000
65.30400 400.000
65.31000 415.000
65.31600 405.000
65.32200 355.000
65.32800 405.000
65.33400 417.000
65.34000 420.000
65.34600 395.000
65.35200 403.000
65.35800 406.000
65.36400 415.000
65.37000 433.000
65.37600 411.000
65.38200 431.000
65.38800 425.000
65.39400 424.000
65.40000 403.000
65.40600 419.000
65.41200 422.000
65.41800 445.000
65.42400 445.000
65.43000 398.000
65.43600 497.000
65.44200 478.000
65.44800 453.000
65.45400 457.000
65.46000 435.000
65.46600 449.000
65.47200 455.000
65.47800 502.000
65.48400 480.000
65.49000 466.000
65.49600 482.000
65.50200 489.000
65.50800 493.000
65.51400 483.000
65.52000 476.000
65.52600 459.000
65.53200 566.000
65.53800 526.000
65.54400 515.000
65.55000 562.000
65.55600 550.000
65.56200 587.000
65.56800 547.000
65.57400 588.000
65.58000 628.000
65.58600 617.000
65.59200 631.000
65.59800 647.000
65.60400 642.000
65.61000 654.000
65.61600 681.000
65.62200 700.000
65.62800 690.000
65.63400 737.000
65.64000 734.000
65.64600 777.000
65.65200 752.000
65.65800 700.000
65.66400 832.000
65.67000 845.000
65.67600 780.000
65.68200 768.000
65.68800 872.000
65.69400 875.000
65.70000 862.000
65.70600 874.000
65.71200 892.000
65.71800 857.000
65.72400 972.000
65.73000 972.000
65.73600 942.000
65.74200 946.000
65.74800 904.000
65.75400 872.000
65.76000 939.000
65.76600 907.000
65.77200 915.000
65.77800 896.000
65.78400 870.000
65.79000 900.000
65.79600 814.000
65.80200 863.000
65.80800 847.000
65.81400 835.000
65.82000 830.000
65.82600 805.000
65.83200 808.000
65.83800 781.000
65.84400 837.000
65.85000 779.000
65.85600 809.000
65.86200 722.000
65.86800 721.000
65.87400 799.000
65.88000 726.000
65.88600 759.000
65.89200 720.000
65.89800 766.000
65.90400 693.000
65.91000 710.000
65.91600 721.000
65.92200 705.000
65.92800 738.000
65.93400 667.000
65.94000 699.000
65.94600 668.000
65.95200 638.000
65.95800 670.000
65.96400 671.000
65.97000 638.000
65.97600 599.000
65.98200 599.000
65.98800 619.000
65.99400 596.000
66.00000 576.000
66.00600 571.000
66.01200 511.000
66.01800 557.000
66.02400 532.000
66.03000 565.000
66.03600 529.000
66.04200 514.000
66.04800 528.000
66.05400 471.000
66.06000 495.000
66.06600 452.000
66.07200 459.000
66.07800 446.000
66.08400 475.000
66.09000 471.000
66.09600 405.000
66.10200 492.000
66.10800 445.000
66.11400 449.000
66.12000 431.000
66.12600 447.000
66.13200 431.000
66.13800 443.000
66.14400 428.000
66.15000 421.000
66.15600 386.000
66.16200 442.000
66.16800 403.000
66.17400 387.000
66.18000 404.000
66.18600 378.000
66.19200 419.000
66.19800 366.000
66.20400 397.000
66.21000 367.000
66.21600 386.000
66.22200 388.000
66.22800 380.000
66.23400 380.000
66.24000 359.000
66.24600 402.000
66.25200 393.000
66.25800 395.000
66.26400 394.000
66.27000 400.000
66.27600 397.000
66.28200 391.000
66.28800 362.000
66.29400 339.000
66.30000 351.000
66.30600 331.000
66.31200 390.000
66.31800 367.000
66.32400 346.000
66.33000 350.000
66.33600 401.000
66.34200 398.000
66.34800 334.000
66.35400 379.000
66.36000 354.000
66.36600 381.000
66.37200 372.000
66.37800 339.000
66.38400 376.000
66.39000 360.000
66.39600 364.000
66.40200 373.000
66.40800 355.000
66.41400 329.000
66.42000 337.000
66.42600 367.000
66.43200 361.000
66.43800 337.000
66.44400 353.000
66.45000 328.000
66.45600 340.000
66.46200 336.000
66.46800 346.000
66.47400 346.000
66.48000 338.000
66.48600 371.000
66.49200 336.000
66.49800 351.000
66.50400 350.000
66.51000 331.000
66.51600 357.000
66.52200 339.000
66.52800 363.000
66.53400 391.000
66.54000 342.000
66.54600 350.000
66.55200 348.000
66.55800 337.000
66.56400 322.000
66.57000 378.000
66.57600 374.000
66.58200 358.000
66.58800 347.000
66.59400 364.000
66.60000 321.000
66.60600 328.000
66.61200 339.000
66.61800 370.000
66.62400 332.000
66.63000 328.000
66.63600 354.000
66.64200 343.000
66.64800 349.000
66.65400 319.000
66.66000 318.000
66.66600 323.000
66.67200 351.000
66.67800 344.000
66.68400 366.000
66.69000 342.000
66.69600 376.000
66.70200 343.000
66.70800 343.000
66.71400 338.000
66.72000 345.000
66.72600 350.000
66.73200 358.000
66.73800 350.000
66.74400 313.000
66.75000 308.000
66.75600 356.000
66.76200 360.000
66.76800 318.000
66.77400 360.000
66.78000 319.000
66.78600 353.000
66.79200 333.000
66.79800 336.000
66.80400 384.000
66.81000 355.000
66.81600 348.000
66.82200 332.000
66.82800 344.000
66.83400 355.000
66.84000 358.000
66.84600 343.000
66.85200 342.000
66.85800 340.000
66.86400 320.000
66.87000 349.000
66.87600 367.000
66.88200 362.000
66.88800 327.000
66.89400 360.000
66.90000 337.000
66.90600 357.000
66.91200 347.000
66.91800 373.000
66.92400 334.000
66.93000 341.000
66.93600 349.000
66.94200 304.000
66.94800 356.000
66.95400 367.000
66.96000 351.000
66.96600 276.000
66.97200 328.000
66.97800 337.000
66.98400 332.000
66.99000 338.000
66.99600 366.000
67.00200 333.000
67.00800 331.000
67.01400 308.000
67.02000 346.000
67.02600 341.000
67.03200 354.000
67.03800 358.000
67.04400 336.000
67.05000 333.000
67.05600 348.000
67.06200 320.000
67.06800 348.000
67.07400 346.000
67.08000 319.000
67.08600 373.000
67.09200 318.000
67.09800 337.000
67.10400 333.000
67.11000 318.000
67.11600 335.000
67.12200 355.000
67.12800 348.000
67.13400 390.000
67.14000 324.000
67.14600 322.000
67.15200 351.000
67.15800 343.000
67.16400 309.000
67.17000 322.000
67.17600 331.000
67.18200 319.000
67.18800 357.000
67.19400 354.000
67.20000 377.000
67.20600 339.000
67.21200 326.000
67.21800 318.000
67.22400 306.000
67.23000 319.000
67.23600 308.000
67.24200 311.000
67.24800 304.000
67.25400 310.000
67.26000 315.000
67.26600 324.000
67.27200 302.000
67.27800 341.000
67.28400 322.000
67.29000 320.000
67.29600 318.000
67.30200 364.000
67.30800 322.000
67.31400 315.000
67.32000 305.000
67.32600 327.000
67.33200 318.000
67.33800 301.000
67.34400 311.000
67.35000 306.000
67.35600 308.000
67.36200 340.000
67.36800 316.000
67.37400 320.000
67.38000 345.000
67.38600 318.000
67.39200 340.000
67.39800 335.000
67.40400 318.000
67.41000 356.000
67.41600 313.000
67.42200 347.000
67.42800 335.000
67.43400 350.000
67.44000 301.000
67.44600 312.000
67.45200 322.000
67.45800 347.000
67.46400 349.000
67.47000 314.000
67.47600 306.000
67.48200 312.000
67.48800 304.000
67.49400 356.000
67.50000 308.000
67.50600 280.000
67.51200 301.000
67.51800 332.000
67.52400 331.000
67.53000 333.000
67.53600 320.000
67.54200 334.000
67.54800 310.000
67.55400 329.000
67.56000 324.000
67.56600 305.000
67.57200 329.000
67.57800 331.000
67.58400 332.000
67.59000 320.000
67.59600 306.000
67.60200 310.000
67.60800 325.000
67.61400 320.000
67.62000 334.000
67.62600 327.000
67.63200 306.000
67.63800 317.000
67.64400 350.000
67.65000 313.000
67.65600 333.000
67.66200 330.000
67.66800 326.000
67.67400 303.000
67.68000 322.000
67.68600 318.000
67.69200 318.000
67.69800 325.000
67.70400 289.000
67.71000 326.000
67.71600 314.000
67.72200 304.000
67.72800 314.000
67.73400 329.000
67.74000 339.000
67.74600 337.000
67.75200 335.000
67.75800 276.000
67.76400 331.000
67.77000 304.000
67.77600 338.000
67.78200 332.000
67.78800 301.000
67.79400 321.000
67.80000 303.000
67.80600 283.000
67.81200 295.000
67.81800 322.000
67.82400 324.000
67.83000 311.000
67.83600 330.000
67.84200 325.000
67.84800 302.000
67.85400 330.000
67.86000 304.000
67.86600 290.000
67.87200 338.000
67.87800 321.000
67.88400 326.000
67.89000 350.000
67.89600 312.000
67.90200 317.000
67.90800 327.000
67.91400 321.000
67.92000 317.000
67.92600 325.000
67.93200 327.000
67.93800 306.000
67.94400 309.000
67.95000 291.000
67.95600 305.000
67.96200 336.000
67.96800 332.000
67.97400 314.000
67.98000 298.000
67.98600 306.000
67.99200 331.000
67.99800 330.000
68.00400 323.000
68.01000 316.000
68.01600 344.000
68.02200 329.000
68.02800 289.000
68.03400 317.000
68.04000 320.000
68.04600 315.000
68.05200 311.000
68.05800 314.000
68.06400 342.000
68.07000 353.000
68.07600 341.000
68.08200 340.000
68.08800 340.000
68.09400 327.000
68.10000 322.000
68.10600 313.000
68.11200 284.000
68.11800 336.000
68.12400 308.000
68.13000 320.000
68.13600 309.000
68.14200 339.000
68.14800 343.000
68.15400 304.000
68.16000 319.000
68.16600 344.000
68.17200 321.000
68.17800 317.000
68.18400 334.000
68.19000 314.000
68.19600 351.000
68.20200 341.000
68.20800 347.000
68.21400 340.000
68.22000 314.000
68.22600 317.000
68.23200 331.000
68.23800 338.000
68.24400 346.000
68.25000 308.000
68.25600 294.000
68.26200 329.000
68.26800 338.000
68.27400 293.000
68.28000 330.000
68.28600 296.000
68.29200 328.000
68.29800 345.000
68.30400 327.000
68.31000 325.000
68.31600 297.000
68.32200 304.000
68.32800 322.000
68.33400 346.000
68.34000 315.000
68.34600 350.000
68.35200 333.000
68.35800 284.000
68.36400 330.000
68.37000 343.000
68.37600 327.000
68.38200 359.000
68.38800 319.000
68.39400 316.000
68.40000 314.000
68.40600 343.000
68.41200 295.000
68.41800 326.000
68.42400 327.000
68.43000 343.000
68.43600 302.000
68.44200 309.000
68.44800 339.000
68.45400 332.000
68.46000 310.000
68.46600 328.000
68.47200 300.000
68.47800 309.000
68.48400 302.000
68.49000 349.000
68.49600 333.000
68.50200 334.000
68.50800 338.000
68.51400 300.000
68.52000 310.000
68.52600 323.000
68.53200 308.000
68.53800 313.000
68.54400 288.000
68.55000 352.000
68.55600 305.000
68.56200 301.000
68.56800 313.000
68.57400 313.000
68.58000 333.000
68.58600 329.000
68.59200 332.000
68.59800 320.000
68.60400 317.000
68.61000 343.000
68.61600 324.000
68.62200 303.000
68.62800 334.000
68.63400 328.000
68.64000 316.000
68.64600 321.000
68.65200 335.000
68.65800 329.000
68.66400 341.000
68.67000 302.000
68.67600 336.000
68.68200 342.000
68.68800 318.000
68.69400 307.000
68.70000 308.000
68.70600 354.000
68.71200 349.000
68.71800 316.000
68.72400 360.000
68.73000 331.000
68.73600 309.000
68.74200 333.000
68.74800 336.000
68.75400 316.000
68.76000 330.000
68.76600 319.000
68.77200 298.000
68.77800 314.000
68.78400 343.000
68.79000 336.000
68.79600 326.000
68.80200 329.000
68.80800 315.000
68.81400 296.000
68.82000 323.000
68.82600 308.000
68.83200 327.000
68.83800 306.000
68.84400 362.000
68.85000 324.000
68.85600 340.000
68.86200 334.000
68.86800 338.000
68.87400 340.000
68.88000 325.000
68.88600 338.000
68.89200 331.000
68.89800 327.000
68.90400 340.000
68.91000 310.000
68.91600 310.000
68.92200 322.000
68.92800 308.000
68.93400 339.000
68.94000 332.000
68.94600 354.000
68.95200 336.000
68.95800 303.000
68.96400 310.000
68.97000 300.000
68.97600 358.000
68.98200 319.000
68.98800 331.000
68.99400 333.000
69.00000 321.000
69.00600 326.000
69.01200 340.000
69.01800 323.000
69.02400 324.000
69.03000 332.000
69.03600 294.000
69.04200 324.000
69.04800 314.000
69.05400 368.000
69.06000 356.000
69.06600 328.000
69.07200 343.000
69.07800 300.000
69.08400 322.000
69.09000 332.000
69.09600 333.000
69.10200 350.000
69.10800 303.000
69.11400 314.000
69.12000 335.000
69.12600 354.000
69.13200 328.000
69.13800 311.000
69.14400 335.000
69.15000 326.000
69.15600 326.000
69.16200 294.000
69.16800 330.000
69.17400 310.000
69.18000 332.000
69.18600 348.000
69.19200 333.000
69.19800 324.000
69.20400 328.000
69.21000 323.000
69.21600 368.000
69.22200 310.000
69.22800 320.000
69.23400 349.000
69.24000 326.000
69.24600 295.000
69.25200 342.000
69.25800 355.000
69.26400 318.000
69.27000 342.000
69.27600 369.000
69.28200 324.000
69.28800 331.000
69.29400 330.000
69.30000 358.000
69.30600 369.000
69.31200 322.000
69.31800 350.000
69.32400 321.000
69.33000 305.000
69.33600 319.000
69.34200 289.000
69.34800 326.000
69.35400 342.000
69.36000 319.000
69.36600 327.000
69.37200 340.000
69.37800 353.000
69.38400 382.000
69.39000 341.000
69.39600 307.000
69.40200 317.000
69.40800 327.000
69.41400 346.000
69.42000 339.000
69.42600 353.000
69.43200 328.000
69.43800 338.000
69.44400 306.000
69.45000 338.000
69.45600 342.000
69.46200 331.000
69.46800 335.000
69.47400 321.000
69.48000 345.000
69.48600 322.000
69.49200 338.000
69.49800 344.000
69.50400 306.000
69.51000 331.000
69.51600 326.000
69.52200 318.000
69.52800 339.000
69.53400 352.000
69.54000 311.000
69.54600 356.000
69.55200 353.000
69.55800 328.000
69.56400 356.000
69.57000 332.000
69.57600 357.000
69.58200 317.000
69.58800 334.000
69.59400 333.000
69.60000 357.000
69.60600 346.000
69.61200 343.000
69.61800 350.000
69.62400 292.000
69.63000 351.000
69.63600 337.000
69.64200 330.000
69.64800 325.000
69.65400 330.000
69.66000 357.000
69.66600 369.000
69.67200 375.000
69.67800 350.000
69.68400 356.000
69.69000 343.000
69.69600 314.000
69.70200 375.000
69.70800 334.000
69.71400 335.000
69.72000 318.000
69.72600 331.000
69.73200 332.000
69.73800 337.000
69.74400 347.000
69.75000 343.000
69.75600 352.000
69.76200 356.000
69.76800 323.000
69.77400 371.000
69.78000 321.000
69.78600 379.000
69.79200 325.000
69.79800 317.000
69.80400 346.000
69.81000 345.000
69.81600 339.000
69.82200 326.000
69.82800 375.000
69.83400 340.000
69.84000 351.000
69.84600 343.000
69.85200 371.000
69.85800 331.000
69.86400 361.000
69.87000 365.000
69.87600 344.000
69.88200 368.000
69.88800 376.000
69.89400 332.000
69.90000 345.000
69.90600 368.000
69.91200 356.000
69.91800 366.000
69.92400 394.000
69.93000 365.000
69.93600 387.000
69.94200 421.000
69.94800 350.000
69.95400 408.000
69.96000 332.000
69.96600 380.000
69.97200 380.000
69.97800 391.000
69.98400 369.000
69.99000 347.000
69.99600 407.000
70.00200 355.000
70.00800 415.000
70.01400 384.000
70.02000 401.000
70.02600 374.000
70.03200 422.000
70.03800 380.000
70.04400 358.000
70.05000 364.000
70.05600 420.000
70.06200 416.000
70.06800 357.000
70.07400 407.000
70.08000 400.000
70.08600 379.000
70.09200 408.000
70.09800 382.000
70.10400 433.000
70.11000 379.000
70.11600 384.000
70.12200 389.000
70.12800 413.000
70.13400 406.000
70.14000 374.000
70.14600 385.000
70.15200 412.000
70.15800 431.000
70.16400 374.000
70.17000 400.000
70.17600 420.000
70.18200 417.000
70.18800 424.000
70.19400 412.000
70.20000 439.000
70.20600 424.000
70.21200 424.000
70.21800 387.000
70.22400 427.000
70.23000 442.000
70.23600 421.000
70.24200 431.000
70.24800 446.000
70.25400 436.000
70.26000 442.000
70.26600 410.000
70.27200 419.000
70.27800 490.000
70.28400 426.000
70.29000 390.000
70.29600 436.000
70.30200 431.000
70.30800 477.000
70.31400 431.000
70.32000 434.000
70.32600 462.000
70.33200 431.000
70.33800 490.000
70.34400 470.000
70.35000 452.000
70.35600 506.000
70.36200 488.000
70.36800 435.000
70.37400 469.000
70.38000 483.000
70.38600 487.000
70.39200 471.000
70.39800 512.000
70.40400 528.000
70.41000 471.000
70.41600 507.000
70.42200 479.000
70.42800 522.000
70.43400 503.000
70.44000 557.000
70.44600 532.000
70.45200 542.000
70.45800 503.000
70.46400 549.000
70.47000 552.000
70.47600 573.000
70.48200 512.000
70.48800 551.000
70.49400 559.000
70.50000 581.000
70.50600 593.000
70.51200 573.000
70.51800 603.000
70.52400 607.000
70.53000 627.000
70.53600 616.000
70.54200 627.000
70.54800 620.000
70.55400 666.000
70.56000 620.000
70.56600 690.000
70.57200 663.000
70.57800 677.000
70.58400 682.000
70.59000 747.000
70.59600 715.000
70.60200 682.000
70.60800 733.000
70.61400 724.000
70.62000 734.000
70.62600 792.000
70.63200 814.000
70.63800 747.000
70.64400 789.000
70.65000 754.000
70.65600 762.000
70.66200 804.000
70.66800 884.000
70.67400 862.000
70.68000 893.000
70.68600 909.000
70.69200 942.000
70.69800 936.000
70.70400 984.000
70.71000 1004.000
70.71600 1000.000
70.72200 960.000
70.72800 1040.000
70.73400 1069.000
70.74000 1116.000
70.74600 1163.000
70.75200 1199.000
70.75800 1195.000
70.76400 1221.000
70.77000 1312.000
70.77600 1277.000
70.78200 1306.000
70.78800 1347.000
70.79400 1431.000
70.80000 1518.000
70.80600 1533.000
70.81200 1559.000
70.81800 1579.000
70.82400 1611.000
70.83000 1650.000
70.83600 1682.000
70.84200 1753.000
70.84800 1827.000
70.85400 1851.000
70.86000 1904.000
70.86600 1947.000
70.87200 1963.000
70.87800 2022.000
70.88400 2014.000
70.89000 2068.000
70.89600 2196.000
70.90200 2243.000
70.90800 2260.000
70.91400 2267.000
70.92000 2323.000
70.92600 2375.000
70.93200 2521.000
70.93800 2396.000
70.94400 2401.000
70.95000 2494.000
70.95600 2482.000
70.96200 2539.000
70.96800 2446.000
70.97400 2379.000
70.98000 2336.000
70.98600 2315.000
70.99200 2402.000
70.99800 2310.000
71.00400 2254.000
71.01000 2174.000
71.01600 2134.000
71.02200 2083.000
71.02800 2094.000
71.03400 2028.000
71.04000 1999.000
71.04600 1891.000
71.05200 1953.000
71.05800 1870.000
71.06400 1882.000
71.07000 1858.000
71.07600 1820.000
71.08200 1784.000
71.08800 1809.000
71.09400 1776.000
71.10000 1731.000
71.10600 1677.000
71.11200 1739.000
71.11800 1721.000
71.12400 1664.000
71.13000 1722.000
71.13600 1610.000
71.14200 1699.000
71.14800 1633.000
71.15400 1634.000
71.16000 1608.000
71.16600 1607.000
71.17200 1579.000
71.17800 1560.000
71.18400 1521.000
71.19000 1436.000
71.19600 1413.000
71.20200 1454.000
71.20800 1321.000
71.21400 1223.000
71.22000 1222.000
71.22600 1255.000
71.23200 1192.000
71.23800 1126.000
71.24400 1155.000
71.25000 1071.000
71.25600 1086.000
71.26200 1021.000
71.26800 971.000
71.27400 934.000
71.28000 973.000
71.28600 929.000
71.29200 886.000
71.29800 873.000
71.30400 789.000
71.31000 758.000
71.31600 769.000
71.32200 801.000
71.32800 782.000
71.33400 720.000
71.34000 751.000
71.34600 747.000
71.35200 657.000
71.35800 692.000
71.36400 698.000
71.37000 672.000
71.37600 655.000
71.38200 622.000
71.38800 636.000
71.39400 614.000
71.40000 587.000
71.40600 617.000
71.41200 595.000
71.41800 543.000
71.42400 591.000
71.43000 546.000
71.43600 575.000
71.44200 529.000
71.44800 520.000
71.45400 554.000
71.46000 522.000
71.46600 554.000
71.47200 566.000
71.47800 477.000
71.48400 505.000
71.49000 507.000
71.49600 501.000
71.50200 517.000
71.50800 512.000
71.51400 492.000
71.52000 447.000
71.52600 462.000
71.53200 458.000
71.53800 471.000
71.54400 453.000
71.55000 475.000
71.55600 446.000
71.56200 421.000
71.56800 464.000
71.57400 432.000
71.58000 467.000
71.58600 461.000
71.59200 419.000
71.59800 419.000
71.60400 446.000
71.61000 383.000
71.61600 421.000
71.62200 437.000
71.62800 434.000
71.63400 404.000
71.64000 433.000
71.64600 393.000
71.65200 404.000
71.65800 408.000
71.66400 394.000
71.67000 377.000
71.67600 391.000
71.68200 400.000
71.68800 417.000
71.69400 374.000
71.70000 390.000
71.70600 389.000
71.71200 373.000
71.71800 365.000
71.72400 377.000
71.73000 416.000
71.73600 380.000
71.74200 387.000
71.74800 376.000
71.75400 350.000
71.76000 367.000
71.76600 379.000
71.77200 373.000
71.77800 378.000
71.78400 367.000
71.79000 351.000
71.79600 416.000
71.80200 356.000
71.80800 392.000
71.81400 374.000
71.82000 346.000
71.82600 379.000
71.83200 393.000
71.83800 360.000
71.84400 373.000
71.85000 340.000
71.85600 367.000
71.86200 402.000
71.86800 345.000
71.87400 358.000
71.88000 327.000
71.88600 348.000
71.89200 367.000
71.89800 360.000
71.90400 358.000
71.91000 339.000
71.91600 332.000
71.92200 328.000
71.92800 350.000
71.93400 368.000
71.94000 365.000
71.94600 359.000
71.95200 325.000
71.95800 367.000
71.96400 322.000
71.97000 339.000
71.97600 360.000
71.98200 348.000
71.98800 346.000
71.99400 342.000
72.00000 303.000
72.00600 356.000
72.01200 322.000
72.01800 338.000
72.02400 334.000
72.03000 322.000
72.03600 375.000
72.04200 335.000
72.04800 353.000
72.05400 330.000
72.06000 342.000
72.06600 323.000
72.07200 352.000
72.07800 306.000
72.08400 326.000
72.09000 359.000
72.09600 351.000
72.10200 342.000
72.10800 386.000
72.11400 369.000
72.12000 303.000
72.12600 352.000
72.13200 331.000
72.13800 346.000
72.14400 317.000
72.15000 340.000
72.15600 317.000
72.16200 313.000
72.16800 361.000
72.17400 354.000
72.18000 315.000
72.18600 322.000
72.19200 323.000
72.19800 347.000
72.20400 313.000
72.21000 335.000
72.21600 380.000
72.22200 336.000
72.22800 306.000
72.23400 339.000
72.24000 321.000
72.24600 332.000
72.25200 365.000
72.25800 323.000
72.26400 310.000
72.27000 358.000
72.27600 324.000
72.28200 315.000
72.28800 329.000
72.29400 346.000
72.30000 322.000
72.30600 346.000
72.31200 311.000
72.31800 332.000
72.32400 313.000
72.33000 331.000
72.33600 311.000
72.34200 303.000
72.34800 359.000
72.35400 340.000
72.36000 337.000
72.36600 285.000
72.37200 316.000
72.37800 363.000
72.38400 310.000
72.39000 322.000
72.39600 318.000
72.40200 330.000
72.40800 331.000
72.41400 289.000
72.42000 347.000
72.42600 325.000
72.43200 352.000
72.43800 339.000
72.44400 327.000
72.45000 326.000
72.45600 323.000
72.46200 320.000
72.46800 314.000
72.47400 328.000
72.48000 315.000
72.48600 326.000
72.49200 333.000
72.49800 348.000
72.50400 315.000
72.51000 330.000
72.51600 326.000
72.52200 318.000
72.52800 311.000
72.53400 322.000
72.54000 303.000
72.54600 333.000
72.55200 336.000
72.55800 317.000
72.56400 343.000
72.57000 333.000
72.57600 291.000
72.58200 374.000
72.58800 341.000
72.59400 323.000
72.60000 311.000
72.60600 359.000
72.61200 344.000
72.61800 314.000
72.62400 345.000
72.63000 294.000
72.63600 340.000
72.64200 318.000
72.64800 318.000
72.65400 307.000
72.66000 325.000
72.66600 311.000
72.67200 304.000
72.67800 304.000
72.68400 340.000
72.69000 326.000
72.69600 305.000
72.70200 319.000
72.70800 319.000
72.71400 311.000
72.72000 336.000
72.72600 330.000
72.73200 297.000
72.73800 308.000
72.74400 318.000
72.75000 314.000
72.75600 286.000
72.76200 320.000
72.76800 307.000
72.77400 336.000
72.78000 305.000
72.78600 330.000
72.79200 304.000
72.79800 321.000
72.80400 299.000
72.81000 352.000
72.81600 323.000
72.82200 316.000
72.82800 329.000
72.83400 283.000
72.84000 291.000
72.84600 316.000
72.85200 336.000
72.85800 309.000
72.86400 288.000
72.87000 361.000
72.87600 305.000
72.88200 300.000
72.88800 324.000
72.89400 295.000
72.90000 319.000
72.90600 306.000
72.91200 288.000
72.91800 315.000
72.92400 333.000
72.93000 342.000
72.93600 302.000
72.94200 315.000
72.94800 289.000
72.95400 332.000
72.96000 316.000
72.96600 359.000
72.97200 328.000
72.97800 293.000
72.98400 325.000
72.99000 274.000
72.99600 312.000
73.00200 294.000
73.00800 324.000
73.01400 303.000
73.02000 304.000
73.02600 300.000
73.03200 318.000
73.03800 341.000
73.04400 330.000
73.05000 317.000
73.05600 323.000
73.06200 331.000
73.06800 310.000
73.07400 345.000
73.08000 310.000
73.08600 306.000
73.09200 320.000
73.09800 319.000
73.10400 354.000
73.11000 334.000
73.11600 312.000
73.12200 326.000
73.12800 313.000
73.13400 315.000
73.14000 326.000
73.14600 326.000
73.15200 327.000
73.15800 311.000
73.16400 295.000
73.17000 335.000
73.17600 335.000
73.18200 325.000
73.18800 325.000
73.19400 329.000
73.20000 318.000
73.20600 333.000
73.21200 310.000
73.21800 322.000
73.22400 299.000
73.23000 323.000
73.23600 292.000
73.24200 305.000
73.24800 328.000
73.25400 320.000
73.26000 328.000
73.26600 314.000
73.27200 331.000
73.27800 321.000
73.28400 312.000
73.29000 290.000
73.29600 312.000
73.30200 319.000
73.30800 303.000
73.31400 342.000
73.32000 313.000
73.32600 331.000
73.33200 340.000
73.33800 349.000
73.34400 359.000
73.35000 298.000
73.35600 327.000
73.36200 315.000
73.36800 303.000
73.37400 332.000
73.38000 293.000
73.38600 326.000
73.39200 301.000
73.39800 328.000
73.40400 309.000
73.41000 324.000
73.41600 310.000
73.42200 312.000
73.42800 295.000
73.43400 303.000
73.44000 333.000
73.44600 316.000
73.45200 302.000
73.45800 313.000
73.46400 356.000
73.47000 322.000
73.47600 310.000
73.48200 292.000
73.48800 335.000
73.49400 326.000
73.50000 307.000
73.50600 314.000
73.51200 304.000
73.51800 344.000
73.52400 334.000
73.53000 335.000
73.53600 339.000
73.54200 301.000
73.54800 323.000
73.55400 338.000
73.56000 319.000
73.56600 319.000
73.57200 328.000
73.57800 342.000
73.58400 341.000
73.59000 300.000
73.59600 346.000
73.60200 306.000
73.60800 350.000
73.61400 342.000
73.62000 324.000
73.62600 335.000
73.63200 319.000
73.63800 340.000
73.64400 330.000
73.65000 327.000
73.65600 330.000
73.66200 314.000
73.66800 366.000
73.67400 344.000
73.68000 340.000
73.68600 345.000
73.69200 325.000
73.69800 347.000
73.70400 360.000
73.71000 336.000
73.71600 375.000
73.72200 328.000
73.72800 345.000
73.73400 376.000
73.74000 365.000
73.74600 363.000
73.75200 363.000
73.75800 370.000
73.76400 362.000
73.77000 372.000
73.77600 363.000
73.78200 380.000
73.78800 367.000
73.79400 386.000
73.80000 370.000
73.80600 414.000
73.81200 353.000
73.81800 376.000
73.82400 402.000
73.83000 381.000
73.83600 372.000
73.84200 393.000
73.84800 429.000
73.85400 419.000
73.86000 419.000
73.86600 383.000
73.87200 444.000
73.87800 456.000
73.88400 425.000
73.89000 398.000
73.89600 443.000
73.90200 407.000
73.90800 436.000
73.91400 481.000
73.92000 443.000
73.92600 427.000
73.93200 439.000
73.93800 443.000
73.94400 418.000
73.95000 433.000
73.95600 451.000
73.96200 465.000
73.96800 460.000
73.97400 458.000
73.98000 454.000
73.98600 422.000
73.99200 479.000
73.99800 454.000
74.00400 439.000
74.01000 424.000
74.01600 471.000
74.02200 433.000
74.02800 424.000
74.03400 442.000
74.04000 408.000
74.04600 430.000
74.05200 442.000
74.05800 429.000
74.06400 412.000
74.07000 436.000
74.07600 428.000
74.08200 479.000
74.08800 412.000
74.09400 406.000
74.10000 441.000
74.10600 406.000
74.11200 435.000
74.11800 432.000
74.12400 445.000
74.13000 400.000
74.13600 411.000
74.14200 385.000
74.14800 414.000
74.15400 427.000
74.16000 387.000
74.16600 402.000
74.17200 369.000
74.17800 410.000
74.18400 443.000
74.19000 389.000
74.19600 380.000
74.20200 384.000
74.20800 406.000
74.21400 402.000
74.22000 374.000
74.22600 409.000
74.23200 378.000
74.23800 406.000
74.24400 394.000
74.25000 415.000
74.25600 359.000
74.26200 364.000
74.26800 361.000
74.27400 361.000
74.28000 399.000
74.28600 374.000
74.29200 386.000
74.29800 327.000
74.30400 348.000
74.31000 326.000
74.31600 374.000
74.32200 348.000
74.32800 366.000
74.33400 343.000
74.34000 336.000
74.34600 349.000
74.35200 381.000
74.35800 355.000
74.36400 358.000
74.37000 358.000
74.37600 352.000
74.38200 347.000
74.38800 321.000
74.39400 336.000
74.40000 357.000
74.40600 327.000
74.41200 376.000
74.41800 330.000
74.42400 312.000
74.43000 341.000
74.43600 330.000
74.44200 335.000
74.44800 341.000
74.45400 331.000
74.46000 314.000
74.46600 301.000
74.47200 329.000
74.47800 340.000
74.48400 353.000
74.49000 311.000
74.49600 338.000
74.50200 329.000
74.50800 316.000
74.51400 321.000
74.52000 338.000
74.52600 333.000
74.53200 314.000
74.53800 327.000
74.54400 320.000
74.55000 301.000
74.55600 296.000
74.56200 292.000
74.56800 311.000
74.57400 298.000
74.58000 300.000
74.58600 315.000
74.59200 314.000
74.59800 279.000
74.60400 288.000
74.61000 331.000
74.61600 332.000
74.62200 322.000
74.62800 333.000
74.63400 327.000
74.64000 354.000
74.64600 315.000
74.65200 342.000
74.65800 314.000
74.66400 309.000
74.67000 318.000
74.67600 300.000
74.68200 292.000
74.68800 341.000
74.69400 313.000
74.70000 310.000
74.70600 312.000
74.71200 284.000
74.71800 304.000
74.72400 314.000
74.73000 329.000
74.73600 316.000
74.74200 307.000
74.74800 338.000
74.75400 296.000
74.76000 341.000
74.76600 331.000
74.77200 372.000
74.77800 298.000
74.78400 335.000
74.79000 323.000
74.79600 350.000
74.80200 291.000
74.80800 304.000
74.81400 344.000
74.82000 356.000
74.82600 330.000
74.83200 329.000
74.83800 346.000
74.84400 268.000
74.85000 335.000
74.85600 343.000
74.86200 370.000
74.86800 373.000
74.87400 326.000
74.88000 349.000
74.88600 331.000
74.89200 320.000
74.89800 331.000
74.90400 353.000
74.91000 359.000
74.91600 348.000
74.92200 351.000
74.92800 358.000
74.93400 367.000
74.94000 369.000
74.94600 348.000
74.95200 368.000
74.95800 352.000
74.96400 348.000
74.97000 348.000
74.97600 346.000
74.98200 339.000
74.98800 395.000
74.99400 343.000
75.00000 369.000
75.00600 357.000
75.01200 374.000
75.01800 352.000
75.02400 370.000
75.03000 356.000
75.03600 343.000
75.04200 362.000
75.04800 356.000
75.05400 347.000
75.06000 353.000
75.06600 347.000
75.07200 364.000
75.07800 314.000
75.08400 300.000
75.09000 355.000
75.09600 363.000
75.10200 339.000
75.10800 317.000
75.11400 363.000
75.12000 347.000
75.12600 306.000
75.13200 349.000
75.13800 286.000
75.14400 347.000
75.15000 297.000
75.15600 337.000
75.16200 312.000
75.16800 312.000
75.17400 311.000
75.18000 326.000
75.18600 367.000
75.19200 323.000
75.19800 321.000
75.20400 332.000
75.21000 315.000
75.21600 335.000
75.22200 333.000
75.22800 323.000
75.23400 359.000
75.24000 319.000
75.24600 309.000
75.25200 343.000
75.25800 337.000
75.26400 336.000
75.27000 338.000
75.27600 299.000
75.28200 337.000
75.28800 328.000
75.29400 283.000
75.30000 313.000
75.30600 334.000
75.31200 334.000
75.31800 329.000
75.32400 318.000
75.33000 321.000
75.33600 318.000
75.34200 334.000
75.34800 356.000
75.35400 311.000
75.36000 320.000
75.36600 305.000
75.37200 295.000
75.37800 303.000
75.38400 292.000
75.39000 307.000
75.39600 334.000
75.40200 331.000
75.40800 324.000
75.41400 326.000
75.42000 320.000
75.42600 312.000
75.43200 303.000
75.43800 293.000
75.44400 311.000
75.45000 309.000
75.45600 285.000
75.46200 318.000
75.46800 305.000
75.47400 283.000
75.48000 315.000
75.48600 332.000
75.49200 328.000
75.49800 321.000
75.50400 322.000
75.51000 313.000
75.51600 294.000
75.52200 305.000
75.52800 303.000
75.53400 322.000
75.54000 271.000
75.54600 270.000
75.55200 303.000
75.55800 297.000
75.56400 321.000
75.57000 299.000
75.57600 304.000
75.58200 312.000
75.58800 296.000
75.59400 307.000
75.60000 273.000
75.60600 335.000
75.61200 285.000
75.61800 304.000
75.62400 303.000
75.63000 295.000
75.63600 292.000
75.64200 323.000
75.64800 301.000
75.65400 318.000
75.66000 306.000
75.66600 302.000
75.67200 312.000
75.67800 332.000
75.68400 275.000
75.69000 279.000
75.69600 287.000
75.70200 304.000
75.70800 310.000
75.71400 274.000
75.72000 333.000
75.72600 298.000
75.73200 310.000
75.73800 301.000
75.74400 295.000
75.75000 307.000
75.75600 322.000
75.76200 308.000
75.76800 315.000
75.77400 309.000
75.78000 296.000
75.78600 310.000
75.79200 311.000
75.79800 293.000
75.80400 297.000
75.81000 313.000
75.81600 294.000
75.82200 321.000
75.82800 310.000
75.83400 306.000
75.84000 297.000
75.84600 287.000
75.85200 300.000
75.85800 314.000
75.86400 331.000
75.87000 304.000
75.87600 322.000
75.88200 274.000
75.88800 261.000
75.89400 303.000
75.90000 330.000
75.90600 308.000
75.91200 291.000
75.91800 312.000
75.92400 300.000
75.93000 321.000
75.93600 274.000
75.94200 309.000
75.94800 305.000
75.95400 309.000
75.96000 295.000
75.96600 299.000
75.97200 331.000
75.97800 279.000
75.98400 293.000
75.99000 336.000
75.99600 310.000
76.00200 295.000
76.00800 315.000
76.01400 294.000
76.02000 336.000
76.02600 293.000
76.03200 284.000
76.03800 314.000
76.04400 333.000
76.05000 317.000
76.05600 267.000
76.06200 313.000
76.06800 328.000
76.07400 276.000
76.08000 311.000
76.08600 291.000
76.09200 283.000
76.09800 296.000
76.10400 343.000
76.11000 302.000
76.11600 320.000
76.12200 325.000
76.12800 341.000
76.13400 302.000
76.14000 274.000
76.14600 286.000
76.15200 297.000
76.15800 307.000
76.16400 319.000
76.17000 314.000
76.17600 297.000
76.18200 299.000
76.18800 274.000
76.19400 327.000
76.20000 343.000
76.20600 325.000
76.21200 292.000
76.21800 322.000
76.22400 315.000
76.23000 299.000
76.23600 300.000
76.24200 327.000
76.24800 303.000
76.25400 311.000
76.26000 319.000
76.26600 267.000
76.27200 328.000
76.27800 316.000
76.28400 344.000
76.29000 298.000
76.29600 304.000
76.30200 295.000
76.30800 299.000
76.31400 286.000
76.32000 331.000
76.32600 292.000
76.33200 314.000
76.33800 329.000
76.34400 282.000
76.35000 295.000
76.35600 329.000
76.36200 291.000
76.36800 307.000
76.37400 309.000
76.38000 283.000
76.38600 307.000
76.39200 319.000
76.39800 305.000
76.40400 320.000
76.41000 328.000
76.41600 302.000
76.42200 345.000
76.42800 287.000
76.43400 321.000
76.44000 301.000
76.44600 304.000
76.45200 297.000
76.45800 348.000
76.46400 337.000
76.47000 337.000
76.47600 337.000
76.48200 307.000
76.48800 318.000
76.49400 333.000
76.50000 329.000
76.50600 342.000
76.51200 304.000
76.51800 296.000
76.52400 313.000
76.53000 328.000
76.53600 336.000
76.54200 318.000
76.54800 309.000
76.55400 319.000
76.56000 321.000
76.56600 325.000
76.57200 309.000
76.57800 313.000
76.58400 318.000
76.59000 311.000
76.59600 297.000
76.60200 336.000
76.60800 317.000
76.61400 336.000
76.62000 337.000
76.62600 325.000
76.63200 318.000
76.63800 342.000
76.64400 355.000
76.65000 333.000
76.65600 379.000
76.66200 355.000
76.66800 329.000
76.67400 329.000
76.68000 360.000
76.68600 351.000
76.69200 340.000
76.69800 324.000
76.70400 315.000
76.71000 328.000
76.71600 347.000
76.72200 358.000
76.72800 377.000
76.73400 318.000
76.74000 328.000
76.74600 363.000
76.75200 299.000
76.75800 307.000
76.76400 343.000
76.77000 323.000
76.77600 334.000
76.78200 338.000
76.78800 327.000
76.79400 312.000
76.80000 334.000
76.80600 343.000
76.81200 324.000
76.81800 326.000
76.82400 338.000
76.83000 344.000
76.83600 320.000
76.84200 333.000
76.84800 292.000
76.85400 318.000
76.86000 331.000
76.86600 345.000
76.87200 334.000
76.87800 323.000
76.88400 316.000
76.89000 267.000
76.89600 311.000
76.90200 288.000
76.90800 300.000
76.91400 286.000
76.92000 333.000
76.92600 316.000
76.93200 276.000
76.93800 312.000
76.94400 305.000
76.95000 323.000
76.95600 315.000
76.96200 292.000
76.96800 308.000
76.97400 296.000
76.98000 314.000
76.98600 288.000
76.99200 286.000
76.99800 302.000
77.00400 289.000
77.01000 320.000
77.01600 315.000
77.02200 302.000
77.02800 320.000
77.03400 334.000
77.04000 303.000
77.04600 306.000
77.05200 280.000
77.05800 304.000
77.06400 299.000
77.07000 313.000
77.07600 321.000
77.08200 282.000
77.08800 312.000
77.09400 284.000
77.10000 309.000
77.10600 329.000
77.11200 289.000
77.11800 302.000
77.12400 296.000
77.13000 298.000
77.13600 278.000
77.14200 300.000
77.14800 281.000
77.15400 328.000
77.16000 303.000
77.16600 305.000
77.17200 299.000
77.17800 282.000
77.18400 280.000
77.19000 318.000
77.19600 303.000
77.20200 285.000
77.20800 298.000
77.21400 319.000
77.22000 261.000
77.22600 293.000
77.23200 305.000
77.23800 298.000
77.24400 318.000
77.25000 306.000
77.25600 310.000
77.26200 289.000
77.26800 270.000
77.27400 273.000
77.28000 286.000
77.28600 278.000
77.29200 334.000
77.29800 273.000
77.30400 329.000
77.31000 292.000
77.31600 274.000
77.32200 311.000
77.32800 320.000
77.33400 272.000
77.34000 298.000
77.34600 322.000
77.35200 323.000
77.35800 295.000
77.36400 282.000
77.37000 305.000
77.37600 277.000
77.38200 298.000
77.38800 322.000
77.39400 298.000
77.40000 329.000
77.40600 322.000
77.41200 282.000
77.41800 295.000
77.42400 327.000
77.43000 294.000
77.43600 308.000
77.44200 289.000
77.44800 302.000
77.45400 304.000
77.46000 287.000
77.46600 285.000
77.47200 317.000
77.47800 320.000
77.48400 301.000
77.49000 282.000
77.49600 282.000
77.50200 275.000
77.50800 310.000
77.51400 291.000
77.52000 289.000
77.52600 293.000
77.53200 313.000
77.53800 299.000
77.54400 284.000
77.55000 327.000
77.55600 280.000
77.56200 297.000
77.56800 271.000
77.57400 279.000
77.58000 262.000
77.58600 303.000
77.59200 328.000
77.59800 273.000
77.60400 292.000
77.61000 288.000
77.61600 316.000
77.62200 301.000
77.62800 284.000
77.63400 291.000
77.64000 291.000
77.64600 297.000
77.65200 272.000
77.65800 259.000
77.66400 279.000
77.67000 324.000
77.67600 303.000
77.68200 310.000
77.68800 323.000
77.69400 285.000
77.70000 289.000
77.70600 314.000
77.71200 300.000
77.71800 277.000
77.72400 299.000
77.73000 304.000
77.73600 310.000
77.74200 308.000
77.74800 324.000
77.75400 297.000
77.76000 293.000
77.76600 287.000
77.77200 297.000
77.77800 290.000
77.78400 315.000
77.79000 318.000
77.79600 317.000
77.80200 322.000
77.80800 310.000
77.81400 318.000
77.82000 302.000
77.82600 324.000
77.83200 316.000
77.83800 262.000
77.84400 310.000
77.85000 279.000
77.85600 289.000
77.86200 295.000
77.86800 307.000
77.87400 312.000
77.88000 310.000
77.88600 286.000
77.89200 314.000
77.89800 320.000
77.90400 310.000
77.91000 301.000
77.91600 295.000
77.92200 305.000
77.92800 290.000
77.93400 284.000
77.94000 279.000
77.94600 301.000
77.95200 299.000
77.95800 297.000
77.96400 305.000
77.97000 285.000
77.97600 292.000
77.98200 271.000
77.98800 294.000
77.99400 281.000
78.00000 312.000
