Elapsed time [s]	Value [0,1E-05]
0.000	0
175.125	1.71595E-7
177.146	2.00152E-7
179.175	2.33462E-7
181.186	2.72315E-7
183.205	3.17634E-7
185.226	3.73358E-7
187.248	4.35492E-7
189.266	5.07967E-7
191.288	5.92504E-7
193.306	6.91109E-7
195.328	8.12354E-7
197.349	9.47547E-7
199.368	1.00000E-6
405.477	0
